  -8.5847531e-02
  -8.5079956e-02
  -8.4269200e-02
  -8.3422447e-02
  -8.2546310e-02
  -8.1646832e-02
  -8.0729481e-02
  -7.9799157e-02
  -7.8860186e-02
  -7.7916321e-02
  -7.6970747e-02
  -7.6026075e-02
  -7.5084344e-02
  -7.4146977e-02
  -7.3209136e-02
  -7.2268404e-02
  -7.1326604e-02
  -7.0385338e-02
  -6.9445990e-02
  -6.8509723e-02
  -6.7577481e-02
  -6.6649988e-02
  -6.5727749e-02
  -6.4811050e-02
  -6.3899956e-02
  -6.2994313e-02
  -6.2093747e-02
  -6.1197666e-02
  -6.0305258e-02
  -5.9415489e-02
  -5.8527108e-02
  -5.7638645e-02
  -5.6748407e-02
  -5.5854485e-02
  -5.4954749e-02
  -5.4046849e-02
  -5.3128216e-02
  -5.2196061e-02
  -5.1247376e-02
  -5.0278934e-02
  -4.9287287e-02
  -4.8265071e-02
  -4.7186854e-02
  -4.6040186e-02
  -4.4807583e-02
  -4.3462957e-02
  -4.1971619e-02
  -4.0290274e-02
  -3.8367029e-02
  -3.6141382e-02
  -3.3544235e-02
  -3.0497881e-02
  -2.6916013e-02
  -2.2703723e-02
  -1.7757497e-02
  -1.2009483e-02
  -5.3814438e-03
   2.2885859e-03
   1.1123273e-02
   2.1203860e-02
   3.2570164e-02
   4.5220577e-02
   5.9112064e-02
   7.4160167e-02
   9.0239001e-02
   1.0718126e-01
   1.2477820e-01
   1.4277967e-01
   1.6089660e-01
   1.7887494e-01
   1.9627621e-01
   2.1262208e-01
   2.2749000e-01
   2.4051321e-01
   2.5138073e-01
   2.5983738e-01
   2.6568375e-01
   2.6877623e-01
   2.6902700e-01
   2.6640401e-01
   2.6092859e-01
   2.5251291e-01
   2.4145896e-01
   2.2826864e-01
   2.1341012e-01
   1.9731783e-01
   1.8039248e-01
   1.6300102e-01
   1.4547671e-01
   1.2811904e-01
   1.1119379e-01
   9.4933000e-02
   7.9534980e-02
   6.5164308e-02
   5.1951829e-02
   3.9994657e-02
   2.9356175e-02
   2.0066032e-02
   1.2087368e-02
   5.2740342e-03
  -3.9305082e-04
  -5.0076313e-03
  -8.7622395e-03
  -1.1948197e-02
  -1.4955613e-02
  -1.8273388e-02
  -2.2455358e-02
  -2.7716541e-02
  -3.6076985e-02
  -4.9272681e-02
  -6.7908833e-02
  -9.1459861e-02
  -1.1826939e-01
  -1.4555028e-01
  -1.6938456e-01
  -1.8564139e-01
  -1.8735616e-01
  -1.6560981e-01
  -1.1416134e-01
  -2.9504590e-02
   8.9131753e-02
   2.3978418e-01
   4.1775437e-01
   6.1647446e-01
   8.1926738e-01
   9.9417816e-01
   1.1165733e+00
   1.1708210e+00
   1.1502909e+00
   1.0573542e+00
   9.0338391e-01
   7.0864296e-01
   4.9667418e-01
   2.8719393e-01
   9.5938549e-02
  -6.5651339e-02
  -1.9043086e-01
  -2.7555088e-01
  -3.2245800e-01
  -3.3687533e-01
  -3.2489167e-01
  -2.9404711e-01
  -2.5288416e-01
  -2.0830054e-01
  -1.6554923e-01
  -1.2823843e-01
  -9.8331579e-02
  -7.6181024e-02
  -6.0690319e-02
  -5.0173050e-02
  -4.3153131e-02
  -3.8399795e-02
  -3.4927591e-02
  -3.1996384e-02
  -2.9111359e-02
  -2.6023014e-02
  -2.2727168e-02
  -1.9298037e-02
  -1.5543611e-02
  -1.1414341e-02
  -6.8691755e-03
  -1.8682008e-03
   3.6273602e-03
   9.6551488e-03
   1.6251670e-02
   2.3452291e-02
   3.1291245e-02
   3.9798652e-02
   4.8982846e-02
   5.8874874e-02
   6.9502554e-02
   8.0882652e-02
   9.3020884e-02
   1.0591191e-01
   1.1953935e-01
   1.3387576e-01
   1.4888264e-01
   1.6451046e-01
   1.8069861e-01
   1.9737546e-01
   2.1445830e-01
   2.3185339e-01
   2.4945592e-01
   2.6715004e-01
   2.8480885e-01
   3.0231656e-01
   3.1958165e-01
   3.3642570e-01
   3.5267482e-01
   3.6816691e-01
   3.8275158e-01
   3.9629020e-01
   4.0865589e-01
   4.1973352e-01
   4.2941969e-01
   4.3762275e-01
   4.4426282e-01
   4.4927173e-01
   4.5259308e-01
   4.5418220e-01
   4.5400618e-01
   4.5204386e-01
   4.4822018e-01
   4.4246785e-01
   4.3493623e-01
   4.2577849e-01
   4.1514443e-01
   4.0318050e-01
   3.9002977e-01
   3.7583195e-01
   3.6072340e-01
   3.4483710e-01
   3.2830267e-01
   3.1124637e-01
   2.9379111e-01
   2.7605641e-01
   2.5815844e-01
   2.4021001e-01
   2.2232056e-01
   2.0459618e-01
   1.8713957e-01
   1.7005009e-01
   1.5342374e-01
   1.3735313e-01
   1.2192754e-01
   1.0723285e-01
   9.3351616e-02
   8.0361865e-02
   6.8260757e-02
   5.7010680e-02
   4.6594761e-02
   3.6993863e-02
   2.8186589e-02
   2.0149278e-02
   1.2856010e-02
   6.2786008e-03
   3.8660676e-04
  -4.8526788e-03
  -9.4742240e-03
  -1.3515258e-02
  -1.7015273e-02
  -2.0016022e-02
  -2.2561519e-02
  -2.4698041e-02
  -2.6474125e-02
  -2.7940953e-02
  -2.9147352e-02
  -3.0112333e-02
  -3.0849179e-02
  -3.1371732e-02
  -3.1694400e-02
  -3.1832154e-02
  -3.1800525e-02
  -3.1615610e-02
  -3.1294069e-02
  -3.0853123e-02
  -3.0310557e-02
  -2.9684721e-02
  -2.8994524e-02
  -2.8259442e-02
  -2.7499511e-02
  -2.6735332e-02
  -2.5988068e-02
  -2.5275598e-02
  -2.4575969e-02
  -2.3881311e-02
  -2.3191617e-02
  -2.2506882e-02
  -2.1827099e-02
  -2.1152261e-02
  -2.0482361e-02
  -1.9817393e-02
  -1.9157348e-02
  -1.8502218e-02
  -1.7851994e-02
  -1.7206669e-02
  -1.6566234e-02
  -1.5930678e-02
  -1.5299992e-02
  -1.4674166e-02
  -1.4053191e-02
  -1.3437054e-02
  -1.2825030e-02
  -1.2215936e-02
  -1.1610973e-02
  -1.1011132e-02
  -1.0417066e-02
  -9.8290887e-03
  -9.2471733e-03
  -8.6709552e-03
  -8.0997301e-03
  -7.5324549e-03
  -6.9677470e-03
  -6.4038851e-03
  -5.8388084e-03
  -5.2701172e-03
  -4.6950726e-03
  -4.1105966e-03
  -3.5132719e-03
  -2.8971867e-03
  -2.2410753e-03
  -1.5392695e-03
  -7.8393274e-04
   4.0287505e-05
   9.5625985e-04
   1.9943690e-03
   3.1925156e-03
   4.5961164e-03
   6.2581044e-03
   8.2389284e-03
   1.0606553e-02
   1.3436460e-02
   1.6811646e-02
   2.0822624e-02
   2.5567424e-02
   3.1151590e-02
   3.7687693e-02
   4.5226406e-02
   5.3847001e-02
   6.3647251e-02
   7.4681870e-02
   8.6962515e-02
   1.0045778e-01
   1.1509322e-01
   1.3075131e-01
   1.4727147e-01
   1.6445007e-01
   1.8204043e-01
   1.9975279e-01
   2.1725436e-01
   2.3416926e-01
   2.5016196e-01
   2.6489628e-01
   2.7794056e-01
   2.8893102e-01
   2.9757333e-01
   3.0364268e-01
   3.0698373e-01
   3.0751061e-01
   3.0520698e-01
   3.0012593e-01
   2.9239009e-01
   2.8219154e-01
   2.6978867e-01
   2.5539124e-01
   2.3939079e-01
   2.2224442e-01
   2.0437031e-01
   1.8614773e-01
   1.6791703e-01
   1.4997966e-01
   1.3259816e-01
   1.1599614e-01
   1.0035833e-01
   8.5830529e-02
   7.2519618e-02
   6.0493582e-02
   4.9781488e-02
   4.0333252e-02
   3.2065637e-02
   2.4999376e-02
   1.9080259e-02
   1.4171565e-02
   1.0054059e-02
   6.4259940e-03
   2.9031117e-03
  -9.8135996e-04
  -5.7726538e-03
  -1.1471477e-02
  -1.9823980e-02
  -3.2825508e-02
  -5.1311642e-02
  -7.4958202e-02
  -1.0228125e-01
  -1.3063707e-01
  -1.5622222e-01
  -1.7407346e-01
  -1.7843565e-01
  -1.6444989e-01
  -1.2379214e-01
  -5.0545118e-02
   5.7606722e-02
   1.9937718e-01
   3.6987829e-01
   5.6062036e-01
   7.5945558e-01
   9.4540306e-01
   1.0923905e+00
   1.1811667e+00
   1.2000000e+00
   1.1446780e+00
   1.0184130e+00
   8.4015905e-01
   6.3380418e-01
   4.2063512e-01
   2.1933164e-01
   4.5777418e-02
  -9.1263882e-02
  -1.8980086e-01
  -2.5038379e-01
  -2.7597205e-01
  -2.7193410e-01
  -2.4604748e-01
  -2.0720972e-01
  -1.6297009e-01
  -1.1972999e-01
  -8.1870838e-02
  -5.1749713e-02
  -2.9699343e-02
  -1.4356184e-02
  -4.2713635e-03
   2.1536448e-03
   6.2584047e-03
   9.0844549e-03
   1.1375309e-02
   1.3576455e-02
   1.5838567e-02
   1.8269979e-02
   2.0989001e-02
   2.4046570e-02
   2.7491174e-02
   3.1368847e-02
   3.5723169e-02
   4.0595271e-02
   4.6023831e-02
   5.2044640e-02
   5.8669808e-02
   6.5938315e-02
   7.3900011e-02
   8.2593884e-02
   9.2048060e-02
   1.0227980e-01
   1.1329550e-01
   1.2509070e-01
   1.3765007e-01
   1.5094742e-01
   1.6494568e-01
   1.7959696e-01
   1.9484246e-01
   2.1061254e-01
   2.2682669e-01
   2.4339355e-01
   2.6021087e-01
   2.7717680e-01
   2.9421750e-01
   3.1116263e-01
   3.2783429e-01
   3.4406323e-01
   3.5968884e-01
   3.7455914e-01
   3.8853079e-01
   4.0146910e-01
   4.1324799e-01
   4.2375005e-01
   4.3286649e-01
   4.4049714e-01
   4.4655052e-01
   4.5094373e-01
   4.5360254e-01
   4.5446135e-01
   4.5344641e-01
   4.5047025e-01
   4.4561649e-01
   4.3899197e-01
   4.3070583e-01
   4.2086945e-01
   4.0959646e-01
   3.9700277e-01
   3.8320655e-01
   3.6832820e-01
   3.5249041e-01
   3.3581812e-01
   3.1843853e-01
   3.0048110e-01
   2.8207755e-01
   2.6336185e-01
   2.4447025e-01
   2.2554124e-01
   2.0671558e-01
   1.8813629e-01
   1.6994865e-01
   1.5230019e-01
   1.3534068e-01
   1.1914213e-01
   1.0370102e-01
   8.9044107e-02
   7.5192384e-02
   6.2161033e-02
   4.9959452e-02
   3.8591249e-02
   2.8054239e-02
   1.8340447e-02
   9.4361095e-03
   1.3216693e-03
  -6.0282197e-03
  -1.2644694e-02
  -1.8564683e-02
  -2.3830904e-02
  -2.8491865e-02
  -3.2601868e-02
  -3.6221002e-02
  -3.9413370e-02
  -4.2184939e-02
  -4.4563851e-02
  -4.6602422e-02
  -4.8347672e-02
  -4.9841319e-02
  -5.1119782e-02
  -5.2214181e-02
  -5.3150339e-02
  -5.3948777e-02
  -5.4624718e-02
  -5.5188085e-02
  -5.5643503e-02
  -5.5990297e-02
  -5.6222493e-02
  -5.6328818e-02
  -5.6292699e-02
  -5.6165967e-02
  -5.6041167e-02
  -5.5918902e-02
  -5.5799148e-02
  -5.5681880e-02
  -5.5567076e-02
  -5.5454712e-02
  -5.5344764e-02
  -5.5237208e-02
  -5.5132022e-02
  -5.5029182e-02
  -5.4928664e-02
  -5.4830444e-02
  -5.4734500e-02
  -5.4637510e-02
  -5.4534573e-02
  -5.4428467e-02
  -5.4321834e-02
  -5.4216965e-02
  -5.4115808e-02
  -5.4019958e-02
  -5.3930667e-02
  -5.3848836e-02
  -5.3775020e-02
  -5.3709424e-02
  -5.3651909e-02
  -5.3601986e-02
  -5.3558817e-02
  -5.3521219e-02
  -5.3487659e-02
  -5.3456259e-02
  -5.3424790e-02
  -5.3390677e-02
  -5.3350997e-02
  -5.3302480e-02
  -5.3241508e-02
  -5.3164113e-02
  -5.3065983e-02
  -5.2942456e-02
  -5.2788522e-02
  -5.2598825e-02
  -5.2367660e-02
  -5.2080280e-02
  -5.1704477e-02
  -5.1215141e-02
  -5.0579339e-02
  -4.9755691e-02
  -4.8694367e-02
  -4.7337095e-02
  -4.5617152e-02
  -4.3459369e-02
  -4.0780133e-02
  -3.7487381e-02
  -3.3480603e-02
  -2.8650844e-02
  -2.2901230e-02
  -1.6178965e-02
  -8.3482099e-03
   6.9523699e-04
   1.1011081e-02
   2.2614534e-02
   3.5476309e-02
   4.9522625e-02
   6.4635206e-02
   8.0651280e-02
   9.7363579e-02
   1.1452034e-01
   1.3182530e-01
   1.4895109e-01
   1.6560782e-01
   1.8132817e-01
   1.9565785e-01
   2.0820355e-01
   2.1863283e-01
   2.2667424e-01
   2.3211720e-01
   2.3481210e-01
   2.3467025e-01
   2.3166387e-01
   2.2582612e-01
   2.1719855e-01
   2.0588013e-01
   1.9233574e-01
   1.7702783e-01
   1.6038800e-01
   1.4281693e-01
   1.2468444e-01
   1.0632946e-01
   8.8060006e-02
   7.0153247e-02
   5.2855444e-02
   3.6381979e-02
   2.0917345e-02
   6.6151529e-03
  -6.4018751e-03
  -1.8041901e-02
  -2.8372903e-02
  -3.7493940e-02
  -4.5333346e-02
  -5.1912910e-02
  -5.7350526e-02
  -6.1860197e-02
  -6.5752035e-02
  -6.9432256e-02
  -7.3403186e-02
  -7.8263257e-02
  -8.4704823e-02
  -9.3431103e-02
  -1.0613505e-01
  -1.2399254e-01
  -1.4695977e-01
  -1.7377325e-01
  -2.0194983e-01
  -2.2781861e-01
  -2.4663184e-01
  -2.5108325e-01
  -2.3435510e-01
  -1.9095017e-01
  -1.1669176e-01
  -8.7236665e-03
   1.3459260e-01
   3.1025654e-01
   5.0411893e-01
   6.9891740e-01
   8.7552256e-01
   1.0129380e+00
   1.0883042e+00
   1.0842528e+00
   1.0049869e+00
   8.6258461e-01
   6.7384325e-01
   4.6027958e-01
   2.4771692e-01
   5.5440665e-02
  -1.0605461e-01
  -2.3010393e-01
  -3.1435939e-01
  -3.6076532e-01
  -3.7349437e-01
  -3.6016227e-01
  -3.2928439e-01
  -2.8844295e-01
  -2.4428702e-01
  -2.0253251e-01
  -1.6781552e-01
  -1.4141498e-01
  -1.2219004e-01
  -1.0889437e-01
  -1.0024733e-01
  -9.4933951e-02
  -9.1604909e-02
  -8.9027405e-02
  -8.6775186e-02
  -8.4620186e-02
  -8.2369067e-02
  -7.9872643e-02
  -7.7025874e-02
  -7.3767869e-02
  -7.0081883e-02
  -6.5964317e-02
  -6.1354231e-02
  -5.6202076e-02
  -5.0463517e-02
  -4.4098924e-02
  -3.7073375e-02
  -2.9356650e-02
  -2.0923239e-02
  -1.1752334e-02
  -1.8278349e-03
   8.8616534e-03
   2.0322820e-02
   3.2568850e-02
   4.5710856e-02
   5.9696513e-02
   7.4421478e-02
   8.9779957e-02
   1.0566470e-01
   1.2196701e-01
   1.3857672e-01
   1.5538224e-01
   1.7227049e-01
   1.8912696e-01
   2.0583569e-01
   2.2227925e-01
   2.3833877e-01
   2.5389391e-01
   2.6882290e-01
   2.8300249e-01
   2.9630801e-01
   3.0861330e-01
   3.1979078e-01
   3.2971138e-01
   3.3824462e-01
   3.4525853e-01
   3.5061970e-01
   3.5419328e-01
   3.5584478e-01
   3.5553873e-01
   3.5334100e-01
   3.4931894e-01
   3.4354642e-01
   3.3610386e-01
   3.2707822e-01
   3.1656300e-01
   3.0465823e-01
   2.9147048e-01
   2.7711287e-01
   2.6170505e-01
   2.4537321e-01
   2.2825007e-01
   2.1047491e-01
   1.9219352e-01
   1.7355825e-01
   1.5472799e-01
   1.3586815e-01
   1.1715070e-01
   9.8754131e-02
   8.0846831e-02
   6.3467610e-02
   4.6678138e-02
   3.0546528e-02
   1.5131328e-02
   4.8151637e-04
  -1.3363498e-02
  -2.6373872e-02
  -3.8529334e-02
  -4.9819179e-02
  -6.0242270e-02
  -6.9807039e-02
  -7.8531486e-02
  -8.6443181e-02
  -9.3579259e-02
  -9.9986428e-02
  -1.0572096e-01
  -1.1083068e-01
  -1.1533631e-01
  -1.1928590e-01
  -1.2272650e-01
  -1.2570289e-01
  -1.2825754e-01
  -1.3043068e-01
  -1.3226021e-01
  -1.3378179e-01
  -1.3502879e-01
  -1.3603228e-01
  -1.3682108e-01
  -1.3742171e-01
  -1.3785841e-01
  -1.3815314e-01
  -1.3832559e-01
  -1.3839317e-01
  -1.3837098e-01
  -1.3826637e-01
  -1.3807968e-01
  -1.3782180e-01
  -1.3750321e-01
  -1.3713365e-01
  -1.3672215e-01
  -1.3627698e-01
  -1.3580568e-01
  -1.3531504e-01
  -1.3481114e-01
  -1.3429928e-01
  -1.3378407e-01
  -1.3326936e-01
  -1.3275825e-01
  -1.3225312e-01
  -1.3175562e-01
  -1.3126663e-01
  -1.3078633e-01
  -1.3031414e-01
  -1.2984875e-01
  -1.2938810e-01
  -1.2892942e-01
  -1.2846918e-01
  -1.2800311e-01
  -1.2752680e-01
  -1.2704213e-01
  -1.2655298e-01
  -1.2606228e-01
  -1.2557234e-01
  -1.2508480e-01
  -1.2460069e-01
  -1.2412040e-01
  -1.2364368e-01
  -1.2316966e-01
  -1.2269681e-01
  -1.2222299e-01
  -1.2174540e-01
  -1.2126063e-01
  -1.2076461e-01
  -1.2025266e-01
  -1.1971945e-01
  -1.1915901e-01
  -1.1856474e-01
  -1.1792942e-01
  -1.1724517e-01
  -1.1654529e-01
  -1.1585600e-01
  -1.1509359e-01
  -1.1417398e-01
  -1.1301491e-01
  -1.1153593e-01
  -1.0965844e-01
  -1.0730564e-01
  -1.0440256e-01
  -1.0087607e-01
  -9.6654836e-02
  -9.1669375e-02
  -8.5852015e-02
  -7.9136909e-02
  -7.1460037e-02
  -6.2759200e-02
  -5.2974026e-02
  -4.2045966e-02
  -2.9918294e-02
  -1.6536112e-02
  -1.8500735e-03
   1.3995831e-02
   3.0726534e-02
   4.8078878e-02
   6.5768848e-02
   8.3491564e-02
   1.0092129e-01
   1.1771142e-01
   1.3349449e-01
   1.4788219e-01
   1.6046533e-01
   1.7083914e-01
   1.7874946e-01
   1.8398131e-01
   1.8638618e-01
   1.8589217e-01
   1.8250397e-01
   1.7630293e-01
   1.6744696e-01
   1.5617061e-01
   1.4278505e-01
   1.2767804e-01
   1.1122998e-01
   9.3817386e-02
   7.5877169e-02
   5.7801300e-02
   3.9936463e-02
   2.2584053e-02
   6.0001787e-03
  -9.6043378e-03
  -2.4063963e-02
  -3.7258448e-02
  -4.9129406e-02
  -5.9743927e-02
  -6.9037540e-02
  -7.6978888e-02
  -8.3610510e-02
  -8.9048841e-02
  -9.3484213e-02
  -9.7180852e-02
  -1.0047688e-01
  -1.0378432e-01
  -1.0758908e-01
  -1.1244696e-01
  -1.1891295e-01
  -1.2878246e-01
  -1.4350003e-01
  -1.6343085e-01
  -1.8786067e-01
  -2.1499585e-01
  -2.4196378e-01
  -2.6489348e-01
  -2.7691021e-01
  -2.7082009e-01
  -2.4062298e-01
  -1.8151252e-01
  -8.9876113e-02
   3.6705070e-02
   1.9891894e-01
   3.8675362e-01
   5.8375754e-01
   7.7162604e-01
   9.3020589e-01
   1.0374953e+00
   1.0708931e+00
   1.0249189e+00
   9.0987600e-01
   7.4062142e-01
   5.3636563e-01
   3.2067277e-01
   1.1806205e-01
  -5.8498469e-02
  -2.0117375e-01
  -3.0561451e-01
  -3.7099241e-01
  -4.0000000e-01
  -3.9884820e-01
  -3.7501177e-01
  -3.3681776e-01
  -2.9255531e-01
  -2.4859317e-01
  -2.0937968e-01
  -1.7744279e-01
  -1.5340590e-01
  -1.3652743e-01
  -1.2513930e-01
  -1.1759771e-01
  -1.1254636e-01
  -1.0891645e-01
  -1.0592671e-01
  -1.0308336e-01
  -1.0018015e-01
  -9.7154773e-02
  -9.3849178e-02
  -9.0210151e-02
  -8.6188977e-02
  -8.1739564e-02
  -7.6818448e-02
  -7.1384788e-02
  -6.5400371e-02
  -5.8834065e-02
  -5.1665110e-02
  -4.3843453e-02
  -3.5324374e-02
  -2.6072926e-02
  -1.6063940e-02
  -5.2820197e-03
   6.2784529e-03
   1.8613322e-02
   3.1708655e-02
   4.5540745e-02
   6.0076109e-02
   7.5271488e-02
   9.1073847e-02
   1.0742038e-01
   1.2423849e-01
   1.4145540e-01
   1.5899657e-01
   1.7671739e-01
   1.9446891e-01
   2.1210425e-01
   2.2947858e-01
   2.4644916e-01
   2.6287531e-01
   2.7861842e-01
   2.9354196e-01
   3.0751144e-01
   3.2039448e-01
   3.3206074e-01
   3.4238196e-01
   3.5123194e-01
   3.5848657e-01
   3.6403117e-01
   3.6781132e-01
   3.6980426e-01
   3.7000114e-01
   3.6840760e-01
   3.6504375e-01
   3.5994419e-01
   3.5315800e-01
   3.4474874e-01
   3.3479446e-01
   3.2338767e-01
   3.1063540e-01
   2.9665912e-01
   2.8159482e-01
   2.6559295e-01
   2.4881845e-01
   2.3145073e-01
   2.1368371e-01
   1.9567978e-01
   1.7753404e-01
   1.5939573e-01
   1.4140377e-01
   1.2368470e-01
   1.0635266e-01
   8.9509402e-02
   7.3244304e-02
   5.7634344e-02
   4.2744114e-02
   2.8625816e-02
   1.5319266e-02
   2.8518899e-03
  -8.7612742e-03
  -1.9517577e-02
  -2.9426758e-02
  -3.8492193e-02
  -4.6706489e-02
  -5.4115106e-02
  -6.0764731e-02
  -6.6700891e-02
  -7.1967957e-02
  -7.6609144e-02
  -8.0666511e-02
  -8.4180959e-02
  -8.7192233e-02
  -8.9738922e-02
  -9.1858457e-02
  -9.3587113e-02
  -9.4960010e-02
  -9.6011110e-02
  -9.6773217e-02
  -9.7277981e-02
  -9.7555894e-02
  -9.7636292e-02
  -9.7547353e-02
  -9.7316101e-02
  -9.6968401e-02
  -9.6516729e-02
  -9.5933301e-02
  -9.5234005e-02
  -9.4438738e-02
  -9.3565786e-02
  -9.2631824e-02
  -9.1651917e-02
  -9.0639519e-02
  -8.9606474e-02
  -8.8563015e-02
  -8.7517764e-02
  -8.6477734e-02
  -8.5448326e-02
  -8.4433330e-02
  -8.3434926e-02
  -8.2453685e-02
  -8.1488565e-02
  -8.0536914e-02
  -7.9594471e-02
  -7.8655362e-02
  -7.7712103e-02
  -7.6755718e-02
  -7.5782387e-02
  -7.4797486e-02
  -7.3806558e-02
  -7.2814470e-02
  -7.1825413e-02
  -7.0842904e-02
  -6.9869782e-02
  -6.8908212e-02
  -6.7959681e-02
  -6.7025002e-02
  -6.6104312e-02
  -6.5197070e-02
  -6.4302064e-02
  -6.3417400e-02
  -6.2540513e-02
  -6.1668160e-02
  -6.0796422e-02
  -5.9920706e-02
  -5.9035741e-02
  -5.8135581e-02
  -5.7213605e-02
  -5.6262515e-02
  -5.5274337e-02
  -5.4240422e-02
  -5.3151446e-02
  -5.1997407e-02
  -5.0767629e-02
  -4.9450759e-02
  -4.8025395e-02
  -4.6440308e-02
  -4.4640433e-02
  -4.2565221e-02
  -4.0148446e-02
  -3.7318196e-02
  -3.3996879e-02
  -3.0101220e-02
  -2.5542262e-02
  -2.0225367e-02
  -1.4050214e-02
  -6.9107997e-03
   1.3045601e-03
   1.0681591e-02
   2.1256097e-02
   3.3077598e-02
   4.6151340e-02
   6.0436629e-02
   7.5846836e-02
   9.2249394e-02
   1.0946580e-01
   1.2727160e-01
   1.4539643e-01
   1.6352396e-01
   1.8129194e-01
   1.9829217e-01
   2.1413690e-01
   2.2849527e-01
   2.4094850e-01
   2.5114794e-01
   2.5882039e-01
   2.6376810e-01
   2.6586875e-01
   2.6507550e-01
   2.6141694e-01
   2.5499712e-01
   2.4599552e-01
   2.3466449e-01
   2.2121421e-01
   2.0604406e-01
   1.8962661e-01
   1.7239523e-01
   1.5474407e-01
   1.3702806e-01
   1.1956289e-01
   1.0262506e-01
   8.6451840e-02
   7.1241270e-02
   5.7152180e-02
   4.4304180e-02
   3.2777659e-02
   2.2582564e-02
   1.3542403e-02
   5.7471133e-03
  -7.4796809e-04
  -5.9931206e-03
  -1.0144242e-02
  -1.3462850e-02
  -1.6316080e-02
  -1.9176684e-02
  -2.2623036e-02
  -2.7339127e-02
  -3.4114564e-02
  -4.3843642e-02
  -5.7934460e-02
  -7.7183235e-02
  -1.0113707e-01
  -1.2809281e-01
  -1.5510735e-01
  -1.7789321e-01
  -1.9006688e-01
  -1.8522405e-01
  -1.5747021e-01
  -1.0142070e-01
  -1.2401332e-02
   1.1159802e-01
   2.6924927e-01
   4.5370208e-01
   6.5223742e-01
   8.4626751e-01
   1.0116125e+00
   1.1247112e+00
   1.1689238e+00
   1.1370611e+00
   1.0319099e+00
   8.6623332e-01
   6.6277035e-01
   4.4884565e-01
   2.4356096e-01
   6.2334285e-02
  -8.4620439e-02
  -1.9231579e-01
  -2.6086660e-01
  -2.9256196e-01
  -2.9411982e-01
  -2.7339520e-01
  -2.3778897e-01
  -1.9424777e-01
  -1.4926406e-01
  -1.0886513e-01
  -7.6589125e-02
  -5.2020453e-02
  -3.4252638e-02
  -2.2156273e-02
  -1.4379016e-02
  -9.3455894e-03
  -5.5711299e-03
  -2.4995959e-03
   2.6329992e-04
   3.0217296e-03
   5.9863422e-03
   9.2742642e-03
   1.2909127e-02
   1.6902446e-02
   2.1321373e-02
   2.6208457e-02
   3.1604709e-02
   3.7549600e-02
   4.4081059e-02
   5.1235480e-02
   5.9047714e-02
   6.7551073e-02
   7.6769209e-02
   8.6715828e-02
   9.7417644e-02
   1.0889036e-01
   1.2113773e-01
   1.3415156e-01
   1.4791171e-01
   1.6238610e-01
   1.7753069e-01
   1.9328950e-01
   2.0959461e-01
   2.2636615e-01
   2.4351228e-01
   2.6092924e-01
   2.7850133e-01
   2.9610470e-01
   3.1366157e-01
   3.3101104e-01
   3.4796759e-01
   3.6435645e-01
   3.8001369e-01
   3.9478615e-01
   4.0853149e-01
   4.2111815e-01
   4.3242537e-01
   4.4234319e-01
   4.5077246e-01
   4.5762481e-01
   4.6282267e-01
   4.6629929e-01
   4.6799869e-01
   4.6787570e-01
   4.6586560e-01
   4.6183242e-01
   4.5589219e-01
   4.4819448e-01
   4.3888646e-01
   4.2811288e-01
   4.1601608e-01
   4.0273599e-01
   3.8841014e-01
   3.7317362e-01
   3.5715913e-01
   3.4049695e-01
   3.2331496e-01
   3.0573862e-01
   2.8789096e-01
   2.6989263e-01
   2.5186186e-01
   2.3391445e-01
   2.1616381e-01
   1.9872092e-01
   1.8169436e-01
   1.6519030e-01
   1.4931250e-01
   1.3416228e-01
   1.1983860e-01
   1.0643300e-01
   9.3922899e-02
   8.2275800e-02
   7.1480641e-02
   6.1523018e-02
   5.2385190e-02
   4.4046075e-02
   3.6481251e-02
   2.9662955e-02
   2.3560086e-02
   1.8138201e-02
   1.3359517e-02
   9.1829130e-03
   5.5639257e-03
   2.4547530e-03
  -1.9574784e-04
  -2.4420592e-03
  -4.3309805e-03
  -5.8900782e-03
  -7.1533529e-03
  -8.1526047e-03
  -8.9172269e-03
  -9.4742058e-03
  -9.8481207e-03
  -1.0061144e-02
  -1.0133041e-02
  -1.0081169e-02
  -9.9204811e-03
  -9.6635203e-03
  -9.3204243e-03
  -8.8989232e-03
  -8.4043406e-03
  -7.8395925e-03
  -7.2126796e-03
  -6.5790235e-03
  -5.9500568e-03
  -5.3257737e-03
  -4.7061686e-03
  -4.0912356e-03
  -3.4809689e-03
  -2.8753626e-03
  -2.2744106e-03
  -1.6781069e-03
  -1.0864453e-03
  -4.9941949e-04
   8.2976784e-05
   6.6074992e-04
   1.2345765e-03
   1.8055923e-03
   2.3730047e-03
   2.9360745e-03
   3.4941985e-03
   4.0469095e-03
   4.5938769e-03
   5.1349059e-03
   5.6699381e-03
   6.1990511e-03
   6.7224589e-03
   7.2405114e-03
   7.7536950e-03
   8.2626319e-03
   8.7680808e-03
   9.2709365e-03
   9.7722298e-03
   1.0273128e-02
   1.0774934e-02
   1.1279088e-02
   1.1787165e-02
   1.2300876e-02
   1.2822323e-02
   1.3370543e-02
   1.3951499e-02
   1.4564256e-02
   1.5215650e-02
   1.5920288e-02
   1.6700552e-02
   1.7586594e-02
   1.8616342e-02
   1.9835493e-02
   2.1297517e-02
   2.3063659e-02
   2.5202932e-02
   2.7792126e-02
   3.0915801e-02
   3.4666262e-02
   3.9066560e-02
   4.4223613e-02
   5.0322526e-02
   5.7509333e-02
   6.5890994e-02
   7.5535401e-02
   8.6471369e-02
   9.8688645e-02
   1.1213790e-01
   1.2673074e-01
   1.4233969e-01
   1.5879822e-01
   1.7590070e-01
   1.9340244e-01
   2.1101970e-01
   2.2849956e-01
   2.4546490e-01
   2.6140131e-01
   2.7585724e-01
   2.8844510e-01
   2.9884119e-01
   3.0678575e-01
   3.1208293e-01
   3.1460082e-01
   3.1427140e-01
   3.1109061e-01
   3.0511828e-01
   2.9647818e-01
   2.8530450e-01
   2.7176692e-01
   2.5637276e-01
   2.3961566e-01
   2.2194778e-01
   2.0377972e-01
   1.8548058e-01
   1.6737792e-01
   1.4975780e-01
   1.3286474e-01
   1.1690174e-01
   1.0203029e-01
   8.8370353e-02
   7.6000361e-02
   6.4957233e-02
   5.5236362e-02
   4.6791623e-02
   3.9535364e-02
   3.3294991e-02
   2.8014455e-02
   2.3625960e-02
   1.9898611e-02
   1.6438412e-02
   1.2688268e-02
   7.9279843e-03
   1.2742672e-03
  -8.1540908e-03
  -2.1428640e-02
  -3.9803415e-02
  -6.3231461e-02
  -9.0295123e-02
  -1.1820605e-01
  -1.4280518e-01
  -1.5856276e-01
  -1.5882366e-01
  -1.3805135e-01
  -8.8598586e-02
  -5.2665670e-03
   1.1345157e-01
   2.6537077e-01
   4.4461403e-01
   6.4224463e-01
   8.4197733e-01
   1.0134656e+00
   1.1327363e+00
   1.1844798e+00
   1.1620496e+00
   1.0674626e+00
   9.1134174e-01
   7.1351448e-01
   4.9937387e-01
   2.9019727e-01
   1.0208072e-01
  -5.4061048e-02
  -1.7249461e-01
  -2.5231071e-01
  -2.9546817e-01
  -3.0657937e-01
  -2.9198191e-01
  -2.5954420e-01
  -2.1741048e-01
  -1.7289522e-01
  -1.3143056e-01
  -9.6495375e-02
  -6.9890470e-02
  -5.0549318e-02
  -3.6980923e-02
  -2.7831311e-02
  -2.1883533e-02
  -1.8057659e-02
  -1.5410782e-02
  -1.3142330e-02
  -1.0855763e-02
  -8.4620377e-03
  -5.8663759e-03
  -2.9866540e-03
   2.4659601e-04
   3.8901869e-03
   7.9882761e-03
   1.2572366e-02
   1.7661767e-02
   2.3287629e-02
   2.9502576e-02
   3.6353355e-02
   4.3879066e-02
   5.2111166e-02
   6.1073467e-02
   7.0782135e-02
   8.1245691e-02
   9.2465010e-02
   1.0443332e-01
   1.1713622e-01
   1.3055163e-01
   1.4464986e-01
   1.5939356e-01
   1.7474771e-01
   1.9067670e-01
   2.0706820e-01
   2.2380150e-01
   2.4075432e-01
   2.5780281e-01
   2.7482155e-01
   2.9168354e-01
   3.0826023e-01
   3.2442149e-01
   3.4003562e-01
   3.5496934e-01
   3.6908782e-01
   3.8225465e-01
   3.9433184e-01
   4.0517985e-01
   4.1465756e-01
   4.2262228e-01
   4.2894485e-01
   4.3357401e-01
   4.3646874e-01
   4.3760052e-01
   4.3695596e-01
   4.3453678e-01
   4.3035982e-01
   4.2445700e-01
   4.1687540e-01
   4.0767718e-01
   3.9693962e-01
   3.8475512e-01
   3.7123118e-01
   3.5649043e-01
   3.4067058e-01
   3.2392450e-01
   3.0642013e-01
   2.8834055e-01
   2.6988096e-01
   2.5115055e-01
   2.3227265e-01
   2.1339610e-01
   1.9465770e-01
   1.7618224e-01
   1.5808247e-01
   1.4045909e-01
   1.2340079e-01
   1.0698421e-01
   9.1273950e-02
   7.6322600e-02
   6.2170700e-02
   4.8846760e-02
   3.6367256e-02
   2.4736632e-02
   1.3947296e-02
   3.9842670e-03
  -5.1333895e-03
  -1.3438342e-02
  -2.0978761e-02
  -2.7801460e-02
  -3.3951895e-02
  -3.9474167e-02
  -4.4411019e-02
  -4.8803837e-02
  -5.2692652e-02
  -5.6116135e-02
  -5.9111603e-02
  -6.1715017e-02
  -6.3960977e-02
  -6.5882731e-02
  -6.7512168e-02
  -6.8879820e-02
  -7.0014863e-02
  -7.0945115e-02
  -7.1697039e-02
  -7.2295741e-02
  -7.2764969e-02
  -7.3127115e-02
  -7.3403214e-02
  -7.3597853e-02
  -7.3693765e-02
  -7.3705531e-02
  -7.3647936e-02
  -7.3534565e-02
  -7.3377799e-02
  -7.3188814e-02
  -7.2977586e-02
  -7.2752885e-02
  -7.2522281e-02
  -7.2292139e-02
  -7.2067622e-02
  -7.1852688e-02
  -7.1650095e-02
  -7.1461395e-02
  -7.1286938e-02
  -7.1125874e-02
  -7.0976144e-02
  -7.0834492e-02
  -7.0696454e-02
  -7.0556366e-02
  -7.0407960e-02
  -7.0255124e-02
  -7.0101888e-02
  -6.9949874e-02
  -6.9800418e-02
  -6.9654573e-02
  -6.9513114e-02
  -6.9376529e-02
  -6.9245028e-02
  -6.9118536e-02
  -6.8996695e-02
  -6.8878869e-02
  -6.8764134e-02
  -6.8651289e-02
  -6.8538848e-02
  -6.8425044e-02
  -6.8307825e-02
  -6.8184860e-02
  -6.8053535e-02
  -6.7910953e-02
  -6.7753935e-02
  -6.7579019e-02
  -6.7382463e-02
  -6.7178650e-02
  -6.7021586e-02
  -6.6863955e-02
  -6.6646766e-02
  -6.6310364e-02
  -6.5794430e-02
  -6.5037984e-02
  -6.3979380e-02
  -6.2556313e-02
  -6.0705809e-02
  -5.8364237e-02
  -5.5467299e-02
  -5.1950034e-02
  -4.7746819e-02
  -4.2791367e-02
  -3.7016729e-02
  -3.0355291e-02
  -2.2738778e-02
  -1.4098250e-02
  -4.3641037e-03
   6.5339256e-03
   1.8666767e-02
   3.2106013e-02
   4.6809302e-02
   6.2503197e-02
   7.8975777e-02
   9.5987222e-02
   1.1326735e-01
   1.3051562e-01
   1.4740112e-01
   1.6356258e-01
   1.7860838e-01
   1.9212404e-01
   2.0377867e-01
   2.1323966e-01
   2.2022211e-01
   2.2451784e-01
   2.2599530e-01
   2.2459961e-01
   2.2035256e-01
   2.1335259e-01
   2.0377483e-01
   1.9179995e-01
   1.7768745e-01
   1.6190091e-01
   1.4487662e-01
   1.2701842e-01
   1.0869767e-01
   9.0253286e-02
   7.1991724e-02
   5.4186981e-02
   3.7080594e-02
   2.0881645e-02
   5.7667552e-03
  -8.1199108e-03
  -2.0675916e-02
  -3.2150677e-02
  -4.2487737e-02
  -5.1496643e-02
  -5.9097397e-02
  -6.5320453e-02
  -7.0306720e-02
  -7.4307559e-02
  -7.7684786e-02
  -8.0910669e-02
  -8.4567930e-02
  -8.9349744e-02
  -9.6059740e-02
  -1.0561200e-01
  -1.1903072e-01
  -1.3717815e-01
  -1.6019179e-01
  -1.8699160e-01
  -2.1508916e-01
  -2.4058775e-01
  -2.5818224e-01
  -2.6179045e-01
  -2.4499335e-01
  -2.0100258e-01
  -1.2532795e-01
  -1.5866883e-02
   1.2709562e-01
   3.0119367e-01
   4.9757301e-01
   6.9478995e-01
   8.7158542e-01
   1.0083259e+00
   1.0870034e+00
   1.0912848e+00
   1.0156525e+00
   8.7566134e-01
   6.9047911e-01
   4.8034100e-01
   2.6654953e-01
   7.0676171e-02
  -9.4695128e-02
  -2.2388081e-01
  -3.1430158e-01
  -3.6664367e-01
  -3.8485891e-01
  -3.7552296e-01
  -3.4614608e-01
  -3.0574531e-01
  -2.6172579e-01
  -2.1966627e-01
  -1.8331912e-01
  -1.5461031e-01
  -1.3374644e-01
  -1.1949342e-01
  -1.1013960e-01
  -1.0420697e-01
  -1.0046283e-01
  -9.7919774e-02
  -9.5835676e-02
  -9.3713706e-02
  -9.1302328e-02
  -8.8595294e-02
  -8.5759718e-02
  -8.2615803e-02
  -7.9073425e-02
  -7.5089865e-02
  -7.0623900e-02
  -6.5635804e-02
  -6.0087351e-02
  -5.3941810e-02
  -4.7163947e-02
  -3.9720026e-02
  -3.1577809e-02
  -2.2711382e-02
  -1.3111878e-02
  -2.7568945e-03
   8.3670027e-03
   2.0261419e-02
   3.2916132e-02
   4.6309092e-02
   6.0406420e-02
   7.5162410e-02
   9.0519526e-02
   1.0640841e-01
   1.2274786e-01
   1.3944487e-01
   1.5639459e-01
   1.7348035e-01
   1.9057363e-01
   2.0756946e-01
   2.2434181e-01
   2.4070911e-01
   2.5649986e-01
   2.7155295e-01
   2.8571764e-01
   2.9885357e-01
   3.1083073e-01
   3.2152950e-01
   3.3084064e-01
   3.3866526e-01
   3.4491487e-01
   3.4951132e-01
   3.5238685e-01
   3.5348409e-01
   3.5275126e-01
   3.5009814e-01
   3.4557780e-01
   3.3929089e-01
   3.3134108e-01
   3.2183511e-01
   3.1088274e-01
   2.9859681e-01
   2.8509316e-01
   2.7049072e-01
   2.5491145e-01
   2.3848034e-01
   2.2132546e-01
   2.0357789e-01
   1.8537178e-01
   1.6684433e-01
   1.4813576e-01
   1.2938935e-01
   1.1075144e-01
   9.2371399e-02
   7.4401647e-02
   5.6997650e-02
   4.0271874e-02
   2.4231070e-02
   8.9185191e-03
  -5.6278167e-03
  -1.9377356e-02
  -3.2306897e-02
  -4.4400620e-02
  -5.5650083e-02
  -6.6054227e-02
  -7.5619371e-02
  -8.4359215e-02
  -9.2294842e-02
  -9.9454711e-02
  -1.0587466e-01
  -1.1159792e-01
  -1.1667509e-01
  -1.2116415e-01
  -1.2512561e-01
  -1.2858231e-01
  -1.3157197e-01
  -1.3413729e-01
  -1.3631870e-01
  -1.3815433e-01
  -1.3968003e-01
  -1.4092936e-01
  -1.4193358e-01
  -1.4272167e-01
  -1.4332031e-01
  -1.4375392e-01
  -1.4404459e-01
  -1.4421215e-01
  -1.4427414e-01
  -1.4424579e-01
  -1.4414007e-01
  -1.4396762e-01
  -1.4373685e-01
  -1.4345445e-01
  -1.4312657e-01
  -1.4275891e-01
  -1.4235687e-01
  -1.4192546e-01
  -1.4146937e-01
  -1.4099295e-01
  -1.4050018e-01
  -1.3999471e-01
  -1.3947986e-01
  -1.3895857e-01
  -1.3843346e-01
  -1.3790679e-01
  -1.3738050e-01
  -1.3685615e-01
  -1.3633498e-01
  -1.3581788e-01
  -1.3530538e-01
  -1.3479767e-01
  -1.3429462e-01
  -1.3379573e-01
  -1.3330015e-01
  -1.3280669e-01
  -1.3231384e-01
  -1.3181971e-01
  -1.3132207e-01
  -1.3081788e-01
  -1.3029710e-01
  -1.2976394e-01
  -1.2922647e-01
  -1.2869085e-01
  -1.2816134e-01
  -1.2764033e-01
  -1.2712828e-01
  -1.2662377e-01
  -1.2612348e-01
  -1.2562219e-01
  -1.2511280e-01
  -1.2458629e-01
  -1.2403174e-01
  -1.2343637e-01
  -1.2278546e-01
  -1.2206242e-01
  -1.2124874e-01
  -1.2032405e-01
  -1.1926604e-01
  -1.1805054e-01
  -1.1668388e-01
  -1.1510880e-01
  -1.1320947e-01
  -1.1087636e-01
  -1.0800628e-01
  -1.0450233e-01
  -1.0027394e-01
  -9.5236829e-02
  -8.9313038e-02
  -8.2430921e-02
  -7.4525140e-02
  -6.5536668e-02
  -5.5412791e-02
  -4.4107104e-02
  -3.1579514e-02
  -1.7796239e-02
  -2.7622900e-03
   1.3337459e-02
   3.0248068e-02
   4.7699676e-02
   6.5407542e-02
   8.3072034e-02
   1.0037864e-01
   1.1699796e-01
   1.3258570e-01
   1.4678270e-01
   1.5921490e-01
   1.6949335e-01
   1.7722695e-01
   1.8220646e-01
   1.8436103e-01
   1.8367051e-01
   1.8017076e-01
   1.7395363e-01
   1.6516694e-01
   1.5401451e-01
   1.4075614e-01
   1.2570764e-01
   1.0924077e-01
   9.1783325e-02
   7.3819052e-02
   5.5751292e-02
   3.7857675e-02
   2.0451371e-02
   3.7971742e-03
  -1.1888544e-02
  -2.6437828e-02
  -3.9731143e-02
  -5.1697374e-02
  -6.2313824e-02
  -7.1606216e-02
  -7.9714090e-02
  -8.6825018e-02
  -9.2821882e-02
  -9.7702622e-02
  -1.0160972e-01
  -1.0483020e-01
  -1.0779565e-01
  -1.1108216e-01
  -1.1541042e-01
  -1.2164562e-01
  -1.3079753e-01
  -1.4402042e-01
  -1.6224016e-01
  -1.8528483e-01
  -2.1182470e-01
  -2.3916991e-01
  -2.6326971e-01
  -2.7871244e-01
  -2.7903586e-01
  -2.5833931e-01
  -2.0936478e-01
  -1.2734685e-01
  -1.0673041e-02
   1.3911619e-01
   3.1732747e-01
   5.1493400e-01
   7.1164924e-01
   8.8447337e-01
   1.0123059e+00
   1.0759512e+00
   1.0619657e+00
   9.7165874e-01
   8.1674907e-01
   6.1908474e-01
   4.0531199e-01
   1.9751362e-01
   1.3010058e-02
  -1.3724325e-01
  -2.4807639e-01
  -3.1914972e-01
  -3.5321319e-01
  -3.5554632e-01
  -3.3377781e-01
  -2.9654325e-01
  -2.5248670e-01
  -2.0846869e-01
  -1.6938401e-01
  -1.3836495e-01
  -1.1542362e-01
  -9.9080380e-02
  -8.7931280e-02
  -8.0651227e-02
  -7.5994004e-02
  -7.2792263e-02
  -7.0022015e-02
  -6.7325081e-02
  -6.4567656e-02
  -6.1621102e-02
  -5.8379473e-02
  -5.4759517e-02
  -5.0700672e-02
  -4.6165068e-02
  -4.1136977e-02
  -3.5589874e-02
  -2.9466061e-02
  -2.2713122e-02
  -1.5286267e-02
  -7.1483300e-03
   1.7302306e-03
   1.1371332e-02
   2.1789268e-02
   3.2990707e-02
   4.4974692e-02
   5.7732645e-02
   7.1248361e-02
   8.5498010e-02
   1.0045028e-01
   1.1610704e-01
   1.3240136e-01
   1.4920708e-01
   1.6639664e-01
   1.8384107e-01
   2.0140997e-01
   2.1897157e-01
   2.3639266e-01
   2.5353863e-01
   2.7027346e-01
   2.8645973e-01
   3.0195861e-01
   3.1662986e-01
   3.3033181e-01
   3.4292142e-01
   3.5425420e-01
   3.6418430e-01
   3.7256441e-01
   3.7924585e-01
   3.8411496e-01
   3.8715300e-01
   3.8834697e-01
   3.8769815e-01
   3.8522249e-01
   3.8095061e-01
   3.7492780e-01
   3.6721401e-01
   3.5788387e-01
   3.4702667e-01
   3.3474638e-01
   3.2116162e-01
   3.0640569e-01
   2.9062656e-01
   2.7398686e-01
   2.5666390e-01
   2.3884965e-01
   2.2075076e-01
   2.0254373e-01
   1.8431699e-01
   1.6621546e-01
   1.4837436e-01
   1.3091566e-01
   1.1394808e-01
   9.7567101e-02
   8.1854958e-02
   6.6880639e-02
   5.2699886e-02
   3.9355198e-02
   2.6875826e-02
   1.5277777e-02
   4.5638126e-03
  -5.2765505e-03
  -1.4267042e-02
  -2.2424890e-02
  -2.9756211e-02
  -3.6310642e-02
  -4.2137877e-02
  -4.7286192e-02
  -5.1802446e-02
  -5.5732079e-02
  -5.9119113e-02
  -6.2006151e-02
  -6.4434378e-02
  -6.6443563e-02
  -6.8072052e-02
  -6.9356778e-02
  -7.0333253e-02
  -7.1035570e-02
  -7.1496406e-02
  -7.1747018e-02
  -7.1817246e-02
  -7.1735511e-02
  -7.1527516e-02
  -7.1166783e-02
  -7.0653778e-02
